##TITLE=Example FTIR Reference
##JCAMP-DX=5.00
##DATA TYPE=INFRARED SPECTRUM
##XUNITS=cm-1
##YUNITS=a.u.
##XYDATA=(X Y)
400.000000 0.05000000
402.251407 0.05000000
404.502814 0.05000000
406.754221 0.05000000
409.005629 0.05000000
411.257036 0.05000000
413.508443 0.05000000
415.759850 0.05000000
418.011257 0.05000000
420.262664 0.05000000
422.514071 0.05000000
424.765478 0.05000000
427.016886 0.05000000
429.268293 0.05000000
431.519700 0.05000000
433.771107 0.05000000
436.022514 0.05000000
438.273921 0.05000000
440.525328 0.05000000
442.776735 0.05000000
445.028143 0.05000000
447.279550 0.05000000
449.530957 0.05000000
451.782364 0.05000000
454.033771 0.05000000
456.285178 0.05000000
458.536585 0.05000000
460.787992 0.05000000
463.039400 0.05000000
465.290807 0.05000000
467.542214 0.05000000
469.793621 0.05000000
472.045028 0.05000000
474.296435 0.05000000
476.547842 0.05000000
478.799250 0.05000000
481.050657 0.05000000
483.302064 0.05000000
485.553471 0.05000000
487.804878 0.05000000
490.056285 0.05000000
492.307692 0.05000000
494.559099 0.05000000
496.810507 0.05000000
499.061914 0.05000000
501.313321 0.05000000
503.564728 0.05000000
505.816135 0.05000000
508.067542 0.05000000
510.318949 0.05000000
512.570356 0.05000000
514.821764 0.05000000
517.073171 0.05000000
519.324578 0.05000000
521.575985 0.05000000
523.827392 0.05000000
526.078799 0.05000000
528.330206 0.05000000
530.581614 0.05000000
532.833021 0.05000000
535.084428 0.05000000
537.335835 0.05000000
539.587242 0.05000000
541.838649 0.05000000
544.090056 0.05000000
546.341463 0.05000000
548.592871 0.05000000
550.844278 0.05000000
553.095685 0.05000000
555.347092 0.05000000
557.598499 0.05000000
559.849906 0.05000000
562.101313 0.05000000
564.352720 0.05000000
566.604128 0.05000000
568.855535 0.05000000
571.106942 0.05000000
573.358349 0.05000000
575.609756 0.05000000
577.861163 0.05000000
580.112570 0.05000000
582.363977 0.05000000
584.615385 0.05000000
586.866792 0.05000000
589.118199 0.05000000
591.369606 0.05000000
593.621013 0.05000000
595.872420 0.05000000
598.123827 0.05000000
600.375235 0.05000000
602.626642 0.05000000
604.878049 0.05000000
607.129456 0.05000000
609.380863 0.05000000
611.632270 0.05000000
613.883677 0.05000000
616.135084 0.05000000
618.386492 0.05000000
620.637899 0.05000000
622.889306 0.05000000
625.140713 0.05000000
627.392120 0.05000000
629.643527 0.05000000
631.894934 0.05000000
634.146341 0.05000000
636.397749 0.05000000
638.649156 0.05000000
640.900563 0.05000000
643.151970 0.05000000
645.403377 0.05000000
647.654784 0.05000000
649.906191 0.05000000
652.157598 0.05000000
654.409006 0.05000000
656.660413 0.05000000
658.911820 0.05000000
661.163227 0.05000000
663.414634 0.05000000
665.666041 0.05000000
667.917448 0.05000000
670.168856 0.05000000
672.420263 0.05000000
674.671670 0.05000000
676.923077 0.05000000
679.174484 0.05000000
681.425891 0.05000000
683.677298 0.05000000
685.928705 0.05000000
688.180113 0.05000000
690.431520 0.05000000
692.682927 0.05000000
694.934334 0.05000000
697.185741 0.05000000
699.437148 0.05000000
701.688555 0.05000000
703.939962 0.05000000
706.191370 0.05000000
708.442777 0.05000000
710.694184 0.05000000
712.945591 0.05000000
715.196998 0.05000000
717.448405 0.05000000
719.699812 0.05000000
721.951220 0.05000000
724.202627 0.05000000
726.454034 0.05000000
728.705441 0.05000000
730.956848 0.05000000
733.208255 0.05000000
735.459662 0.05000000
737.711069 0.05000000
739.962477 0.05000000
742.213884 0.05000000
744.465291 0.05000000
746.716698 0.05000000
748.968105 0.05000000
751.219512 0.05000000
753.470919 0.05000000
755.722326 0.05000000
757.973734 0.05000000
760.225141 0.05000000
762.476548 0.05000000
764.727955 0.05000000
766.979362 0.05000000
769.230769 0.05000000
771.482176 0.05000000
773.733583 0.05000000
775.984991 0.05000000
778.236398 0.05000000
780.487805 0.05000000
782.739212 0.05000000
784.990619 0.05000000
787.242026 0.05000000
789.493433 0.05000000
791.744841 0.05000000
793.996248 0.05000000
796.247655 0.05000000
798.499062 0.05000000
800.750469 0.05000000
803.001876 0.05000000
805.253283 0.05000000
807.504690 0.05000000
809.756098 0.05000000
812.007505 0.05000000
814.258912 0.05000000
816.510319 0.05000000
818.761726 0.05000000
821.013133 0.05000000
823.264540 0.05000000
825.515947 0.05000000
827.767355 0.05000000
830.018762 0.05000000
832.270169 0.05000000
834.521576 0.05000000
836.772983 0.05000000
839.024390 0.05000000
841.275797 0.05000000
843.527205 0.05000000
845.778612 0.05000000
848.030019 0.05000000
850.281426 0.05000000
852.532833 0.05000000
854.784240 0.05000000
857.035647 0.05000000
859.287054 0.05000000
861.538462 0.05000000
863.789869 0.05000000
866.041276 0.05000000
868.292683 0.05000000
870.544090 0.05000000
872.795497 0.05000000
875.046904 0.05000000
877.298311 0.05000000
879.549719 0.05000000
881.801126 0.05000000
884.052533 0.05000000
886.303940 0.05000000
888.555347 0.05000000
890.806754 0.05000000
893.058161 0.05000000
895.309568 0.05000000
897.560976 0.05000000
899.812383 0.05000000
902.063790 0.05000000
904.315197 0.05000000
906.566604 0.05000000
908.818011 0.05000000
911.069418 0.05000000
913.320826 0.05000000
915.572233 0.05000000
917.823640 0.05000000
920.075047 0.05000000
922.326454 0.05000000
924.577861 0.05000000
926.829268 0.05000000
929.080675 0.05000000
931.332083 0.05000000
933.583490 0.05000000
935.834897 0.05000000
938.086304 0.05000000
940.337711 0.05000000
942.589118 0.05000000
944.840525 0.05000000
947.091932 0.05000000
949.343340 0.05000000
951.594747 0.05000000
953.846154 0.05000000
956.097561 0.05000000
958.348968 0.05000000
960.600375 0.05000000
962.851782 0.05000000
965.103189 0.05000000
967.354597 0.05000000
969.606004 0.05000000
971.857411 0.05000000
974.108818 0.05000000
976.360225 0.05000000
978.611632 0.05000000
980.863039 0.05000000
983.114447 0.05000000
985.365854 0.05000000
987.617261 0.05000000
989.868668 0.05000000
992.120075 0.05000000
994.371482 0.05000000
996.622889 0.05000000
998.874296 0.05000000
1001.125704 0.05000000
1003.377111 0.05000000
1005.628518 0.05000000
1007.879925 0.05000000
1010.131332 0.05000000
1012.382739 0.05000000
1014.634146 0.05000000
1016.885553 0.05000000
1019.136961 0.05000000
1021.388368 0.05000000
1023.639775 0.05000000
1025.891182 0.05000000
1028.142589 0.05000000
1030.393996 0.05000000
1032.645403 0.05000000
1034.896811 0.05000000
1037.148218 0.05000000
1039.399625 0.05000000
1041.651032 0.05000000
1043.902439 0.05000000
1046.153846 0.05000000
1048.405253 0.05000000
1050.656660 0.05000000
1052.908068 0.05000000
1055.159475 0.05000000
1057.410882 0.05000000
1059.662289 0.05000000
1061.913696 0.05000000
1064.165103 0.05000000
1066.416510 0.05000000
1068.667917 0.05000000
1070.919325 0.05000000
1073.170732 0.05000000
1075.422139 0.05000000
1077.673546 0.05000000
1079.924953 0.05000000
1082.176360 0.05000000
1084.427767 0.05000000
1086.679174 0.05000000
1088.930582 0.05000000
1091.181989 0.05000000
1093.433396 0.05000000
1095.684803 0.05000000
1097.936210 0.05000000
1100.187617 0.05000000
1102.439024 0.05000001
1104.690432 0.05000001
1106.941839 0.05000002
1109.193246 0.05000003
1111.444653 0.05000005
1113.696060 0.05000009
1115.947467 0.05000014
1118.198874 0.05000023
1120.450281 0.05000037
1122.701689 0.05000059
1124.953096 0.05000092
1127.204503 0.05000144
1129.455910 0.05000224
1131.707317 0.05000344
1133.958724 0.05000524
1136.210131 0.05000793
1138.461538 0.05001190
1140.712946 0.05001771
1142.964353 0.05002615
1145.215760 0.05003830
1147.467167 0.05005564
1149.718574 0.05008017
1151.969981 0.05011458
1154.221388 0.05016245
1156.472795 0.05022846
1158.724203 0.05031868
1160.975610 0.05044095
1163.227017 0.05060521
1165.478424 0.05082394
1167.729831 0.05111266
1169.981238 0.05149042
1172.232645 0.05198031
1174.484053 0.05260996
1176.735460 0.05341203
1178.986867 0.05442455
1181.238274 0.05569120
1183.489681 0.05726133
1185.741088 0.05918981
1187.992495 0.06153651
1190.243902 0.06436548
1192.495310 0.06774368
1194.746717 0.07173928
1196.998124 0.07641949
1199.249531 0.08184794
1201.500938 0.08808169
1203.752345 0.09516780
1206.003752 0.10313974
1208.255159 0.11201371
1210.506567 0.12178503
1212.757974 0.13242478
1215.009381 0.14387707
1217.260788 0.15605694
1219.512195 0.16884925
1221.763602 0.18210877
1224.015009 0.19566146
1226.266417 0.20930722
1228.517824 0.22282401
1230.769231 0.23597327
1233.020638 0.24850652
1235.272045 0.26017296
1237.523452 0.27072764
1239.774859 0.27993994
1242.026266 0.28760191
1244.277674 0.29353604
1246.529081 0.29760213
1248.780488 0.29970276
1251.031895 0.29978716
1253.283302 0.29785330
1255.534709 0.29394793
1257.786116 0.28816470
1260.037523 0.28064045
1262.288931 0.27154984
1264.540338 0.26109855
1266.791745 0.24951566
1269.043152 0.23704525
1271.294559 0.22393796
1273.545966 0.21044280
1275.797373 0.19679944
1278.048780 0.18323157
1280.300188 0.16994133
1282.551595 0.15710513
1284.803002 0.14487075
1287.054409 0.13335596
1289.305816 0.12264835
1291.557223 0.11280636
1293.808630 0.10386128
1296.060038 0.09582000
1298.311445 0.08866828
1300.562852 0.08237445
1302.814259 0.07689301
1305.065666 0.07216838
1307.317073 0.06813828
1309.568480 0.06473683
1311.819887 0.06189729
1314.071295 0.05955425
1316.322702 0.05764548
1318.574109 0.05611329
1320.825516 0.05490545
1323.076923 0.05397584
1325.328330 0.05328471
1327.579737 0.05279877
1329.831144 0.05249109
1332.082552 0.05234081
1334.333959 0.05233284
1336.585366 0.05245751
1338.836773 0.05271015
1341.088180 0.05309072
1343.339587 0.05360352
1345.590994 0.05425679
1347.842402 0.05506247
1350.093809 0.05603597
1352.345216 0.05719587
1354.596623 0.05856374
1356.848030 0.06016391
1359.099437 0.06202321
1361.350844 0.06417075
1363.602251 0.06663756
1365.853659 0.06945625
1368.105066 0.07266063
1370.356473 0.07628516
1372.607880 0.08036444
1374.859287 0.08493255
1377.110694 0.09002234
1379.362101 0.09566463
1381.613508 0.10188738
1383.864916 0.10871475
1386.116323 0.11616619
1388.367730 0.12425542
1390.619137 0.13298953
1392.870544 0.14236798
1395.121951 0.15238177
1397.373358 0.16301258
1399.624765 0.17423213
1401.876173 0.18600161
1404.127580 0.19827131
1406.378987 0.21098047
1408.630394 0.22405728
1410.881801 0.23741925
1413.133208 0.25097366
1415.384615 0.26461845
1417.636023 0.27824324
1419.887430 0.29173068
1422.138837 0.30495797
1424.390244 0.31779864
1426.641651 0.33012451
1428.893058 0.34180775
1431.144465 0.35272306
1433.395872 0.36274987
1435.647280 0.37177459
1437.898687 0.37969270
1440.150094 0.38641075
1442.401501 0.39184826
1444.652908 0.39593926
1446.904315 0.39863364
1449.155722 0.39989819
1451.407129 0.39971726
1453.658537 0.39809309
1455.909944 0.39504576
1458.161351 0.39061280
1460.412758 0.38484838
1462.664165 0.37782223
1464.915572 0.36961825
1467.166979 0.36033282
1469.418386 0.35007292
1471.669794 0.33895410
1473.921201 0.32709832
1476.172608 0.31463172
1478.424015 0.30168241
1480.675422 0.28837834
1482.926829 0.27484523
1485.178236 0.26120468
1487.429644 0.24757244
1489.681051 0.23405693
1491.932458 0.22075795
1494.183865 0.20776573
1496.435272 0.19516013
1498.686679 0.18301023
1500.938086 0.17137400
1503.189493 0.16029842
1505.440901 0.14981962
1507.692308 0.13996333
1509.943715 0.13074548
1512.195122 0.12217286
1514.446529 0.11424403
1516.697936 0.10695014
1518.949343 0.10027595
1521.200750 0.09420073
1523.452158 0.08869925
1525.703565 0.08374275
1527.954972 0.07929977
1530.206379 0.07533702
1532.457786 0.07182012
1534.709193 0.06871431
1536.960600 0.06598500
1539.212008 0.06359833
1541.463415 0.06152157
1543.714822 0.05972348
1545.966229 0.05817457
1548.217636 0.05684732
1550.469043 0.05571632
1552.720450 0.05475835
1554.971857 0.05395246
1557.223265 0.05327992
1559.474672 0.05272428
1561.726079 0.05227131
1563.977486 0.05190895
1566.228893 0.05162731
1568.480300 0.05141862
1570.731707 0.05127719
1572.983114 0.05119948
1575.234522 0.05118406
1577.485929 0.05123171
1579.737336 0.05134548
1581.988743 0.05153086
1584.240150 0.05179586
1586.491557 0.05215128
1588.742964 0.05261091
1590.994371 0.05319178
1593.245779 0.05391448
1595.497186 0.05480345
1597.748593 0.05588733
1600.000000 0.05719931
1602.251407 0.05877744
1604.502814 0.06066499
1606.754221 0.06291071
1609.005629 0.06556909
1611.257036 0.06870055
1613.508443 0.07237149
1615.759850 0.07665429
1618.011257 0.08162717
1620.262664 0.08737382
1622.514071 0.09398297
1624.765478 0.10154764
1627.016886 0.11016427
1629.268293 0.11993155
1631.519700 0.13094903
1633.771107 0.14331548
1636.022514 0.15712704
1638.273921 0.17247509
1640.525328 0.18944389
1642.776735 0.20810817
1645.028143 0.22853038
1647.279550 0.25075805
1649.530957 0.27482095
1651.782364 0.30072843
1654.033771 0.32846676
1656.285178 0.35799673
1658.536585 0.38925153
1660.787992 0.42213498
1663.039400 0.45652022
1665.290807 0.49224890
1667.542214 0.52913108
1669.793621 0.56694566
1672.045028 0.60544161
1674.296435 0.64433991
1676.547842 0.68333624
1678.799250 0.72210442
1681.050657 0.76030052
1683.302064 0.79756761
1685.553471 0.83354111
1687.804878 0.86785453
1690.056285 0.90014559
1692.307692 0.93006250
1694.559099 0.95727030
1696.810507 0.98145705
1699.061914 1.00233981
1701.313321 1.01967012
1703.564728 1.03323890
1705.816135 1.04288068
1708.067542 1.04847692
1710.318949 1.04995848
1712.570356 1.04730701
1714.821764 1.04055533
1717.073171 1.02978678
1719.324578 1.01513347
1721.575985 0.99677361
1723.827392 0.97492789
1726.078799 0.94985509
1728.330206 0.92184693
1730.581614 0.89122248
1732.833021 0.85832213
1735.084428 0.82350127
1737.335835 0.78712402
1739.587242 0.74955692
1741.838649 0.71116296
1744.090056 0.67229591
1746.341463 0.63329511
1748.592871 0.59448096
1750.844278 0.55615091
1753.095685 0.51857629
1755.347092 0.48199982
1757.598499 0.44663386
1759.849906 0.41265944
1762.101313 0.38022590
1764.352720 0.34945134
1766.604128 0.32042345
1768.855535 0.29320102
1771.106942 0.26781582
1773.358349 0.24427477
1775.609756 0.22256247
1777.861163 0.20264383
1780.112570 0.18446683
1782.363977 0.16796522
1784.615385 0.15306135
1786.866792 0.13966864
1789.118199 0.12769415
1791.369606 0.11704078
1793.621013 0.10760932
1795.872420 0.09930028
1798.123827 0.09201545
1800.375235 0.08565920
1802.626642 0.08013957
1804.878049 0.07536913
1807.129456 0.07126557
1809.380863 0.06775217
1811.632270 0.06475805
1813.883677 0.06221826
1816.135084 0.06007378
1818.386492 0.05827140
1820.637899 0.05676345
1822.889306 0.05550758
1825.140713 0.05446638
1827.392120 0.05360706
1829.643527 0.05290105
1831.894934 0.05232359
1834.146341 0.05185339
1836.397749 0.05147223
1838.649156 0.05116463
1840.900563 0.05091750
1843.151970 0.05071982
1845.403377 0.05056240
1847.654784 0.05043759
1849.906191 0.05033908
1852.157598 0.05026166
1854.409006 0.05020108
1856.660413 0.05015389
1858.911820 0.05011728
1861.163227 0.05008902
1863.414634 0.05006729
1865.666041 0.05005065
1867.917448 0.05003797
1870.168856 0.05002835
1872.420263 0.05002107
1874.671670 0.05001560
1876.923077 0.05001150
1879.174484 0.05000845
1881.425891 0.05000618
1883.677298 0.05000450
1885.928705 0.05000326
1888.180113 0.05000236
1890.431520 0.05000169
1892.682927 0.05000121
1894.934334 0.05000087
1897.185741 0.05000062
1899.437148 0.05000044
1901.688555 0.05000031
1903.939962 0.05000022
1906.191370 0.05000015
1908.442777 0.05000010
1910.694184 0.05000007
1912.945591 0.05000005
1915.196998 0.05000003
1917.448405 0.05000002
1919.699812 0.05000002
1921.951220 0.05000001
1924.202627 0.05000001
1926.454034 0.05000000
1928.705441 0.05000000
1930.956848 0.05000000
1933.208255 0.05000000
1935.459662 0.05000000
1937.711069 0.05000000
1939.962477 0.05000000
1942.213884 0.05000000
1944.465291 0.05000000
1946.716698 0.05000000
1948.968105 0.05000000
1951.219512 0.05000000
1953.470919 0.05000000
1955.722326 0.05000000
1957.973734 0.05000000
1960.225141 0.05000000
1962.476548 0.05000000
1964.727955 0.05000000
1966.979362 0.05000000
1969.230769 0.05000000
1971.482176 0.05000000
1973.733583 0.05000000
1975.984991 0.05000000
1978.236398 0.05000000
1980.487805 0.05000000
1982.739212 0.05000000
1984.990619 0.05000000
1987.242026 0.05000000
1989.493433 0.05000000
1991.744841 0.05000000
1993.996248 0.05000000
1996.247655 0.05000000
1998.499062 0.05000000
2000.750469 0.05000000
2003.001876 0.05000000
2005.253283 0.05000000
2007.504690 0.05000000
2009.756098 0.05000000
2012.007505 0.05000000
2014.258912 0.05000000
2016.510319 0.05000000
2018.761726 0.05000000
2021.013133 0.05000000
2023.264540 0.05000000
2025.515947 0.05000000
2027.767355 0.05000000
2030.018762 0.05000000
2032.270169 0.05000000
2034.521576 0.05000000
2036.772983 0.05000000
2039.024390 0.05000000
2041.275797 0.05000000
2043.527205 0.05000000
2045.778612 0.05000000
2048.030019 0.05000000
2050.281426 0.05000000
2052.532833 0.05000000
2054.784240 0.05000000
2057.035647 0.05000000
2059.287054 0.05000000
2061.538462 0.05000000
2063.789869 0.05000000
2066.041276 0.05000000
2068.292683 0.05000000
2070.544090 0.05000000
2072.795497 0.05000000
2075.046904 0.05000000
2077.298311 0.05000000
2079.549719 0.05000000
2081.801126 0.05000000
2084.052533 0.05000000
2086.303940 0.05000000
2088.555347 0.05000000
2090.806754 0.05000000
2093.058161 0.05000000
2095.309568 0.05000000
2097.560976 0.05000000
2099.812383 0.05000000
2102.063790 0.05000000
2104.315197 0.05000000
2106.566604 0.05000000
2108.818011 0.05000000
2111.069418 0.05000000
2113.320826 0.05000000
2115.572233 0.05000000
2117.823640 0.05000000
2120.075047 0.05000000
2122.326454 0.05000000
2124.577861 0.05000000
2126.829268 0.05000000
2129.080675 0.05000000
2131.332083 0.05000000
2133.583490 0.05000000
2135.834897 0.05000000
2138.086304 0.05000000
2140.337711 0.05000000
2142.589118 0.05000000
2144.840525 0.05000000
2147.091932 0.05000000
2149.343340 0.05000000
2151.594747 0.05000000
2153.846154 0.05000000
2156.097561 0.05000000
2158.348968 0.05000000
2160.600375 0.05000000
2162.851782 0.05000000
2165.103189 0.05000000
2167.354597 0.05000000
2169.606004 0.05000000
2171.857411 0.05000000
2174.108818 0.05000000
2176.360225 0.05000000
2178.611632 0.05000000
2180.863039 0.05000000
2183.114447 0.05000000
2185.365854 0.05000000
2187.617261 0.05000000
2189.868668 0.05000000
2192.120075 0.05000000
2194.371482 0.05000000
2196.622889 0.05000000
2198.874296 0.05000000
2201.125704 0.05000000
2203.377111 0.05000000
2205.628518 0.05000000
2207.879925 0.05000000
2210.131332 0.05000000
2212.382739 0.05000000
2214.634146 0.05000000
2216.885553 0.05000000
2219.136961 0.05000000
2221.388368 0.05000000
2223.639775 0.05000000
2225.891182 0.05000000
2228.142589 0.05000000
2230.393996 0.05000000
2232.645403 0.05000000
2234.896811 0.05000000
2237.148218 0.05000000
2239.399625 0.05000000
2241.651032 0.05000000
2243.902439 0.05000000
2246.153846 0.05000000
2248.405253 0.05000000
2250.656660 0.05000000
2252.908068 0.05000000
2255.159475 0.05000000
2257.410882 0.05000000
2259.662289 0.05000000
2261.913696 0.05000000
2264.165103 0.05000000
2266.416510 0.05000000
2268.667917 0.05000000
2270.919325 0.05000000
2273.170732 0.05000000
2275.422139 0.05000000
2277.673546 0.05000000
2279.924953 0.05000000
2282.176360 0.05000000
2284.427767 0.05000000
2286.679174 0.05000000
2288.930582 0.05000000
2291.181989 0.05000000
2293.433396 0.05000000
2295.684803 0.05000000
2297.936210 0.05000000
2300.187617 0.05000000
2302.439024 0.05000000
2304.690432 0.05000000
2306.941839 0.05000000
2309.193246 0.05000000
2311.444653 0.05000000
2313.696060 0.05000000
2315.947467 0.05000000
2318.198874 0.05000000
2320.450281 0.05000000
2322.701689 0.05000000
2324.953096 0.05000000
2327.204503 0.05000000
2329.455910 0.05000000
2331.707317 0.05000000
2333.958724 0.05000000
2336.210131 0.05000000
2338.461538 0.05000000
2340.712946 0.05000000
2342.964353 0.05000000
2345.215760 0.05000000
2347.467167 0.05000000
2349.718574 0.05000000
2351.969981 0.05000000
2354.221388 0.05000000
2356.472795 0.05000000
2358.724203 0.05000000
2360.975610 0.05000000
2363.227017 0.05000000
2365.478424 0.05000000
2367.729831 0.05000000
2369.981238 0.05000000
2372.232645 0.05000000
2374.484053 0.05000000
2376.735460 0.05000000
2378.986867 0.05000000
2381.238274 0.05000000
2383.489681 0.05000000
2385.741088 0.05000000
2387.992495 0.05000000
2390.243902 0.05000000
2392.495310 0.05000000
2394.746717 0.05000000
2396.998124 0.05000000
2399.249531 0.05000000
2401.500938 0.05000000
2403.752345 0.05000000
2406.003752 0.05000000
2408.255159 0.05000000
2410.506567 0.05000000
2412.757974 0.05000000
2415.009381 0.05000000
2417.260788 0.05000000
2419.512195 0.05000000
2421.763602 0.05000000
2424.015009 0.05000000
2426.266417 0.05000000
2428.517824 0.05000000
2430.769231 0.05000000
2433.020638 0.05000000
2435.272045 0.05000000
2437.523452 0.05000000
2439.774859 0.05000000
2442.026266 0.05000000
2444.277674 0.05000000
2446.529081 0.05000000
2448.780488 0.05000000
2451.031895 0.05000000
2453.283302 0.05000000
2455.534709 0.05000000
2457.786116 0.05000000
2460.037523 0.05000000
2462.288931 0.05000000
2464.540338 0.05000000
2466.791745 0.05000000
2469.043152 0.05000000
2471.294559 0.05000000
2473.545966 0.05000000
2475.797373 0.05000000
2478.048780 0.05000000
2480.300188 0.05000000
2482.551595 0.05000000
2484.803002 0.05000000
2487.054409 0.05000000
2489.305816 0.05000000
2491.557223 0.05000000
2493.808630 0.05000000
2496.060038 0.05000000
2498.311445 0.05000000
2500.562852 0.05000000
2502.814259 0.05000000
2505.065666 0.05000000
2507.317073 0.05000000
2509.568480 0.05000000
2511.819887 0.05000000
2514.071295 0.05000000
2516.322702 0.05000000
2518.574109 0.05000000
2520.825516 0.05000000
2523.076923 0.05000000
2525.328330 0.05000000
2527.579737 0.05000000
2529.831144 0.05000000
2532.082552 0.05000000
2534.333959 0.05000000
2536.585366 0.05000000
2538.836773 0.05000000
2541.088180 0.05000000
2543.339587 0.05000000
2545.590994 0.05000000
2547.842402 0.05000000
2550.093809 0.05000000
2552.345216 0.05000000
2554.596623 0.05000000
2556.848030 0.05000000
2559.099437 0.05000000
2561.350844 0.05000000
2563.602251 0.05000000
2565.853659 0.05000000
2568.105066 0.05000000
2570.356473 0.05000000
2572.607880 0.05000000
2574.859287 0.05000000
2577.110694 0.05000000
2579.362101 0.05000000
2581.613508 0.05000000
2583.864916 0.05000000
2586.116323 0.05000000
2588.367730 0.05000000
2590.619137 0.05000000
2592.870544 0.05000000
2595.121951 0.05000000
2597.373358 0.05000000
2599.624765 0.05000000
2601.876173 0.05000000
2604.127580 0.05000000
2606.378987 0.05000000
2608.630394 0.05000000
2610.881801 0.05000000
2613.133208 0.05000000
2615.384615 0.05000000
2617.636023 0.05000001
2619.887430 0.05000001
2622.138837 0.05000001
2624.390244 0.05000001
2626.641651 0.05000002
2628.893058 0.05000002
2631.144465 0.05000003
2633.395872 0.05000003
2635.647280 0.05000004
2637.898687 0.05000006
2640.150094 0.05000007
2642.401501 0.05000009
2644.652908 0.05000012
2646.904315 0.05000015
2649.155722 0.05000019
2651.407129 0.05000024
2653.658537 0.05000031
2655.909944 0.05000039
2658.161351 0.05000050
2660.412758 0.05000063
2662.664165 0.05000080
2664.915572 0.05000100
2667.166979 0.05000126
2669.418386 0.05000158
2671.669794 0.05000198
2673.921201 0.05000247
2676.172608 0.05000309
2678.424015 0.05000384
2680.675422 0.05000477
2682.926829 0.05000591
2685.178236 0.05000731
2687.429644 0.05000902
2689.681051 0.05001111
2691.932458 0.05001365
2694.183865 0.05001675
2696.435272 0.05002051
2698.686679 0.05002506
2700.938086 0.05003055
2703.189493 0.05003718
2705.440901 0.05004515
2707.692308 0.05005471
2709.943715 0.05006617
2712.195122 0.05007987
2714.446529 0.05009621
2716.697936 0.05011566
2718.949343 0.05013876
2721.200750 0.05016613
2723.452158 0.05019850
2725.703565 0.05023670
2727.954972 0.05028167
2730.206379 0.05033451
2732.457786 0.05039646
2734.709193 0.05046894
2736.960600 0.05055353
2739.212008 0.05065206
2741.463415 0.05076658
2743.714822 0.05089938
2745.966229 0.05105306
2748.217636 0.05123049
2750.469043 0.05143490
2752.720450 0.05166989
2754.971857 0.05193942
2757.223265 0.05224790
2759.474672 0.05260016
2761.726079 0.05300153
2763.977486 0.05345783
2766.228893 0.05397545
2768.480300 0.05456128
2770.731707 0.05522285
2772.983114 0.05596826
2775.234522 0.05680623
2777.485929 0.05774615
2779.737336 0.05879800
2781.988743 0.05997245
2784.240150 0.06128078
2786.491557 0.06273491
2788.742964 0.06434736
2790.994371 0.06613123
2793.245779 0.06810017
2795.497186 0.07026829
2797.748593 0.07265015
2800.000000 0.07526064
2802.251407 0.07811495
2804.502814 0.08122839
2806.754221 0.08461636
2809.005629 0.08829416
2811.257036 0.09227691
2813.508443 0.09657935
2815.759850 0.10121568
2818.011257 0.10619944
2820.262664 0.11154326
2822.514071 0.11725870
2824.765478 0.12335603
2827.016886 0.12984407
2829.268293 0.13672993
2831.519700 0.14401881
2833.771107 0.15171382
2836.022514 0.15981575
2838.273921 0.16832288
2840.525328 0.17723082
2842.776735 0.18653228
2845.028143 0.19621698
2847.279550 0.20627149
2849.530957 0.21667909
2851.782364 0.22741975
2854.033771 0.23847001
2856.285178 0.24980300
2858.536585 0.26138842
2860.787992 0.27319263
2863.039400 0.28517868
2865.290807 0.29730649
2867.542214 0.30953296
2869.793621 0.32181223
2872.045028 0.33409586
2874.296435 0.34633318
2876.547842 0.35847154
2878.799250 0.37045672
2881.050657 0.38223326
2883.302064 0.39374492
2885.553471 0.40493508
2887.804878 0.41574721
2890.056285 0.42612531
2892.307692 0.43601445
2894.559099 0.44536117
2896.810507 0.45411402
2899.061914 0.46222400
2901.313321 0.46964503
2903.564728 0.47633437
2905.816135 0.48225305
2908.067542 0.48736622
2910.318949 0.49164352
2912.570356 0.49505936
2914.821764 0.49759319
2917.073171 0.49922969
2919.324578 0.49995894
2921.575985 0.49977652
2923.827392 0.49868353
2926.078799 0.49668660
2928.330206 0.49379783
2930.581614 0.49003465
2932.833021 0.48541966
2935.084428 0.47998038
2937.335835 0.47374902
2939.587242 0.46676211
2941.838649 0.45906017
2944.090056 0.45068734
2946.341463 0.44169091
2948.592871 0.43212093
2950.844278 0.42202970
2953.095685 0.41147132
2955.347092 0.40050122
2957.598499 0.38917566
2959.849906 0.37755127
2962.101313 0.36568455
2964.352720 0.35363151
2966.604128 0.34144714
2968.855535 0.32918508
2971.106942 0.31689723
2973.358349 0.30463341
2975.609756 0.29244105
2977.861163 0.28036494
2980.112570 0.26844699
2982.363977 0.25672604
2984.615385 0.24523774
2986.866792 0.23401440
2989.118199 0.22308495
2991.369606 0.21247489
2993.621013 0.20220630
2995.872420 0.19229790
2998.123827 0.18276506
3000.375235 0.17361995
3002.626642 0.16487163
3004.878049 0.15652620
3007.129456 0.14858698
3009.380863 0.14105465
3011.632270 0.13392747
3013.883677 0.12720148
3016.135084 0.12087067
3018.386492 0.11492724
3020.637899 0.10936176
3022.889306 0.10416342
3025.140713 0.09932020
3027.392120 0.09481909
3029.643527 0.09064627
3031.894934 0.08678729
3034.146341 0.08322724
3036.397749 0.07995093
3038.649156 0.07694299
3040.900563 0.07418804
3043.151970 0.07167081
3045.403377 0.06937621
3047.654784 0.06728949
3049.906191 0.06539625
3052.157598 0.06368255
3054.409006 0.06213497
3056.660413 0.06074063
3058.911820 0.05948725
3061.163227 0.05836316
3063.414634 0.05735732
3065.666041 0.05645935
3067.917448 0.05565949
3070.168856 0.05494863
3072.420263 0.05431829
3074.671670 0.05376061
3076.923077 0.05326832
3079.174484 0.05283472
3081.425891 0.05245367
3083.677298 0.05211953
3085.928705 0.05182719
3088.180113 0.05157198
3090.431520 0.05134968
3092.682927 0.05115647
3094.934334 0.05098891
3097.185741 0.05084391
3099.437148 0.05071871
3101.688555 0.05061085
3103.939962 0.05051813
3106.191370 0.05043859
3108.442777 0.05037050
3110.694184 0.05031236
3112.945591 0.05026280
3115.196998 0.05022066
3117.448405 0.05018490
3119.699812 0.05015462
3121.951220 0.05012904
3124.202627 0.05010748
3126.454034 0.05008933
3128.705441 0.05007410
3130.956848 0.05006134
3133.208255 0.05005068
3135.459662 0.05004178
3137.711069 0.05003438
3139.962477 0.05002823
3142.213884 0.05002313
3144.465291 0.05001892
3146.716698 0.05001544
3148.968105 0.05001258
3151.219512 0.05001022
3153.470919 0.05000829
3155.722326 0.05000671
3157.973734 0.05000542
3160.225141 0.05000437
3162.476548 0.05000352
3164.727955 0.05000283
3166.979362 0.05000226
3169.230769 0.05000181
3171.482176 0.05000145
3173.733583 0.05000115
3175.984991 0.05000092
3178.236398 0.05000073
3180.487805 0.05000057
3182.739212 0.05000045
3184.990619 0.05000036
3187.242026 0.05000028
3189.493433 0.05000022
3191.744841 0.05000017
3193.996248 0.05000014
3196.247655 0.05000011
3198.499062 0.05000008
3200.750469 0.05000006
3203.001876 0.05000005
3205.253283 0.05000004
3207.504690 0.05000003
3209.756098 0.05000002
3212.007505 0.05000002
3214.258912 0.05000001
3216.510319 0.05000001
3218.761726 0.05000001
3221.013133 0.05000001
3223.264540 0.05000000
3225.515947 0.05000000
3227.767355 0.05000000
3230.018762 0.05000000
3232.270169 0.05000000
3234.521576 0.05000000
3236.772983 0.05000000
3239.024390 0.05000000
3241.275797 0.05000000
3243.527205 0.05000000
3245.778612 0.05000000
3248.030019 0.05000000
3250.281426 0.05000000
3252.532833 0.05000000
3254.784240 0.05000000
3257.035647 0.05000000
3259.287054 0.05000000
3261.538462 0.05000000
3263.789869 0.05000000
3266.041276 0.05000000
3268.292683 0.05000000
3270.544090 0.05000000
3272.795497 0.05000000
3275.046904 0.05000000
3277.298311 0.05000000
3279.549719 0.05000000
3281.801126 0.05000000
3284.052533 0.05000000
3286.303940 0.05000000
3288.555347 0.05000000
3290.806754 0.05000000
3293.058161 0.05000000
3295.309568 0.05000000
3297.560976 0.05000000
3299.812383 0.05000000
3302.063790 0.05000000
3304.315197 0.05000000
3306.566604 0.05000000
3308.818011 0.05000000
3311.069418 0.05000000
3313.320826 0.05000000
3315.572233 0.05000000
3317.823640 0.05000000
3320.075047 0.05000000
3322.326454 0.05000000
3324.577861 0.05000000
3326.829268 0.05000000
3329.080675 0.05000000
3331.332083 0.05000000
3333.583490 0.05000000
3335.834897 0.05000000
3338.086304 0.05000000
3340.337711 0.05000000
3342.589118 0.05000000
3344.840525 0.05000000
3347.091932 0.05000000
3349.343340 0.05000000
3351.594747 0.05000000
3353.846154 0.05000000
3356.097561 0.05000000
3358.348968 0.05000000
3360.600375 0.05000000
3362.851782 0.05000000
3365.103189 0.05000000
3367.354597 0.05000000
3369.606004 0.05000000
3371.857411 0.05000000
3374.108818 0.05000000
3376.360225 0.05000000
3378.611632 0.05000000
3380.863039 0.05000000
3383.114447 0.05000000
3385.365854 0.05000000
3387.617261 0.05000000
3389.868668 0.05000000
3392.120075 0.05000000
3394.371482 0.05000000
3396.622889 0.05000000
3398.874296 0.05000000
3401.125704 0.05000000
3403.377111 0.05000000
3405.628518 0.05000000
3407.879925 0.05000000
3410.131332 0.05000000
3412.382739 0.05000000
3414.634146 0.05000000
3416.885553 0.05000000
3419.136961 0.05000000
3421.388368 0.05000000
3423.639775 0.05000000
3425.891182 0.05000000
3428.142589 0.05000000
3430.393996 0.05000000
3432.645403 0.05000000
3434.896811 0.05000000
3437.148218 0.05000000
3439.399625 0.05000000
3441.651032 0.05000000
3443.902439 0.05000000
3446.153846 0.05000000
3448.405253 0.05000000
3450.656660 0.05000000
3452.908068 0.05000000
3455.159475 0.05000000
3457.410882 0.05000000
3459.662289 0.05000000
3461.913696 0.05000000
3464.165103 0.05000000
3466.416510 0.05000000
3468.667917 0.05000000
3470.919325 0.05000000
3473.170732 0.05000000
3475.422139 0.05000000
3477.673546 0.05000000
3479.924953 0.05000000
3482.176360 0.05000000
3484.427767 0.05000000
3486.679174 0.05000000
3488.930582 0.05000000
3491.181989 0.05000000
3493.433396 0.05000000
3495.684803 0.05000000
3497.936210 0.05000000
3500.187617 0.05000000
3502.439024 0.05000000
3504.690432 0.05000000
3506.941839 0.05000000
3509.193246 0.05000000
3511.444653 0.05000000
3513.696060 0.05000000
3515.947467 0.05000000
3518.198874 0.05000000
3520.450281 0.05000000
3522.701689 0.05000000
3524.953096 0.05000000
3527.204503 0.05000000
3529.455910 0.05000000
3531.707317 0.05000000
3533.958724 0.05000000
3536.210131 0.05000000
3538.461538 0.05000000
3540.712946 0.05000000
3542.964353 0.05000000
3545.215760 0.05000000
3547.467167 0.05000000
3549.718574 0.05000000
3551.969981 0.05000000
3554.221388 0.05000000
3556.472795 0.05000000
3558.724203 0.05000000
3560.975610 0.05000000
3563.227017 0.05000000
3565.478424 0.05000000
3567.729831 0.05000000
3569.981238 0.05000000
3572.232645 0.05000000
3574.484053 0.05000000
3576.735460 0.05000000
3578.986867 0.05000000
3581.238274 0.05000000
3583.489681 0.05000000
3585.741088 0.05000000
3587.992495 0.05000000
3590.243902 0.05000000
3592.495310 0.05000000
3594.746717 0.05000000
3596.998124 0.05000000
3599.249531 0.05000000
3601.500938 0.05000000
3603.752345 0.05000000
3606.003752 0.05000000
3608.255159 0.05000000
3610.506567 0.05000000
3612.757974 0.05000000
3615.009381 0.05000000
3617.260788 0.05000000
3619.512195 0.05000000
3621.763602 0.05000000
3624.015009 0.05000000
3626.266417 0.05000000
3628.517824 0.05000000
3630.769231 0.05000000
3633.020638 0.05000000
3635.272045 0.05000000
3637.523452 0.05000000
3639.774859 0.05000000
3642.026266 0.05000000
3644.277674 0.05000000
3646.529081 0.05000000
3648.780488 0.05000000
3651.031895 0.05000000
3653.283302 0.05000000
3655.534709 0.05000000
3657.786116 0.05000000
3660.037523 0.05000000
3662.288931 0.05000000
3664.540338 0.05000000
3666.791745 0.05000000
3669.043152 0.05000000
3671.294559 0.05000000
3673.545966 0.05000000
3675.797373 0.05000000
3678.048780 0.05000000
3680.300188 0.05000000
3682.551595 0.05000000
3684.803002 0.05000000
3687.054409 0.05000000
3689.305816 0.05000000
3691.557223 0.05000000
3693.808630 0.05000000
3696.060038 0.05000000
3698.311445 0.05000000
3700.562852 0.05000000
3702.814259 0.05000000
3705.065666 0.05000000
3707.317073 0.05000000
3709.568480 0.05000000
3711.819887 0.05000000
3714.071295 0.05000000
3716.322702 0.05000000
3718.574109 0.05000000
3720.825516 0.05000000
3723.076923 0.05000000
3725.328330 0.05000000
3727.579737 0.05000000
3729.831144 0.05000000
3732.082552 0.05000000
3734.333959 0.05000000
3736.585366 0.05000000
3738.836773 0.05000000
3741.088180 0.05000000
3743.339587 0.05000000
3745.590994 0.05000000
3747.842402 0.05000000
3750.093809 0.05000000
3752.345216 0.05000000
3754.596623 0.05000000
3756.848030 0.05000000
3759.099437 0.05000000
3761.350844 0.05000000
3763.602251 0.05000000
3765.853659 0.05000000
3768.105066 0.05000000
3770.356473 0.05000000
3772.607880 0.05000000
3774.859287 0.05000000
3777.110694 0.05000000
3779.362101 0.05000000
3781.613508 0.05000000
3783.864916 0.05000000
3786.116323 0.05000000
3788.367730 0.05000000
3790.619137 0.05000000
3792.870544 0.05000000
3795.121951 0.05000000
3797.373358 0.05000000
3799.624765 0.05000000
3801.876173 0.05000000
3804.127580 0.05000000
3806.378987 0.05000000
3808.630394 0.05000000
3810.881801 0.05000000
3813.133208 0.05000000
3815.384615 0.05000000
3817.636023 0.05000000
3819.887430 0.05000000
3822.138837 0.05000000
3824.390244 0.05000000
3826.641651 0.05000000
3828.893058 0.05000000
3831.144465 0.05000000
3833.395872 0.05000000
3835.647280 0.05000000
3837.898687 0.05000000
3840.150094 0.05000000
3842.401501 0.05000000
3844.652908 0.05000000
3846.904315 0.05000000
3849.155722 0.05000000
3851.407129 0.05000000
3853.658537 0.05000000
3855.909944 0.05000000
3858.161351 0.05000000
3860.412758 0.05000000
3862.664165 0.05000000
3864.915572 0.05000000
3867.166979 0.05000000
3869.418386 0.05000000
3871.669794 0.05000000
3873.921201 0.05000000
3876.172608 0.05000000
3878.424015 0.05000000
3880.675422 0.05000000
3882.926829 0.05000000
3885.178236 0.05000000
3887.429644 0.05000000
3889.681051 0.05000000
3891.932458 0.05000000
3894.183865 0.05000000
3896.435272 0.05000000
3898.686679 0.05000000
3900.938086 0.05000000
3903.189493 0.05000000
3905.440901 0.05000000
3907.692308 0.05000000
3909.943715 0.05000000
3912.195122 0.05000000
3914.446529 0.05000000
3916.697936 0.05000000
3918.949343 0.05000000
3921.200750 0.05000000
3923.452158 0.05000000
3925.703565 0.05000000
3927.954972 0.05000000
3930.206379 0.05000000
3932.457786 0.05000000
3934.709193 0.05000000
3936.960600 0.05000000
3939.212008 0.05000000
3941.463415 0.05000000
3943.714822 0.05000000
3945.966229 0.05000000
3948.217636 0.05000000
3950.469043 0.05000000
3952.720450 0.05000000
3954.971857 0.05000000
3957.223265 0.05000000
3959.474672 0.05000000
3961.726079 0.05000000
3963.977486 0.05000000
3966.228893 0.05000000
3968.480300 0.05000000
3970.731707 0.05000000
3972.983114 0.05000000
3975.234522 0.05000000
3977.485929 0.05000000
3979.737336 0.05000000
3981.988743 0.05000000
3984.240150 0.05000000
3986.491557 0.05000000
3988.742964 0.05000000
3990.994371 0.05000000
3993.245779 0.05000000
3995.497186 0.05000000
3997.748593 0.05000000
4000.000000 0.05000000
##END=